Field,Moment,MomentParasub
1000.223,0.16093349,0.138387349
999.6151,0.160699391,0.138166952
997.1604,0.160914867,0.13843776
994.7471,0.161032788,0.138610079
992.5163,0.161077849,0.138705426
990.3765,0.161084772,0.138760582
988.3215,0.161067168,0.1387893
986.2874,0.161037714,0.138805697
984.2684,0.161003759,0.138817252
982.2547,0.160966427,0.138825311
980.2492,0.160921492,0.138825583
978.2503,0.160872884,0.138822032
976.2453,0.16082211,0.138816453
974.2504,0.160768661,0.138807971
972.2442,0.160720732,0.138805264
970.2386,0.160677178,0.138806919
968.2367,0.160626234,0.1388011
966.2337,0.160575524,0.138795539
964.2339,0.160530611,0.138795704
962.2363,0.160479709,0.138789831
960.2361,0.160428468,0.138783676
958.2351,0.160377461,0.138777773
956.2316,0.160330573,0.138776047
954.2277,0.160280245,0.138770889
952.2223,0.160230851,0.138766699
950.2194,0.160187446,0.138768441
948.2327,0.160139921,0.138765699
946.2361,0.160096961,0.138767745
944.2375,0.160052876,0.138768711
942.2376,0.160003185,0.1387641
940.2381,0.159959164,0.138765149
938.2386,0.159908029,0.138759085
936.233,0.159855769,0.138752033
934.2341,0.159803636,0.138744958
932.2355,0.159748126,0.138734499
930.2363,0.159698732,0.138730169
928.2357,0.159646981,0.138723514
926.2469,0.159594721,0.138716083
924.2303,0.159541144,0.138707963
922.24,0.159487291,0.138698973
920.2383,0.159429742,0.138686545
918.2386,0.159378607,0.138680486
916.2382,0.159326708,0.138673678
914.2356,0.159278779,0.13867089
912.2362,0.159227559,0.138664739
910.2491,0.159181032,0.138663003
908.2482,0.159127604,0.138654677
906.2444,0.159072307,0.138644548
904.2416,0.159013718,0.138631105
902.2413,0.158952008,0.138614483
900.2402,0.158903464,0.138611046
898.24,0.158867554,0.138620224
896.2398,0.158822535,0.138620291
894.2353,0.158774798,0.138617737
892.2478,0.15872362,0.13861136
890.2468,0.158679875,0.13861272
888.2431,0.158634155,0.138612166
886.2427,0.158582574,0.138605676
884.2416,0.158530399,0.138598607
882.2494,0.15847903,0.138592145
880.2423,0.158433331,0.138591689
878.2463,0.158390478,0.138593828
876.2364,0.158342019,0.138590674
874.2443,0.158294472,0.138588031
872.2404,0.158239812,0.138578541
870.2392,0.158178484,0.138562323
868.2415,0.158123293,0.138552162
866.2428,0.158068123,0.138542045
864.2454,0.158010512,0.138529457
862.246,0.157955597,0.138519611
860.2444,0.157901658,0.138510791
858.2429,0.157847572,0.13850182
856.2421,0.157793952,0.138493301
854.2415,0.157744028,0.138488472
852.2561,0.15768941,0.138478607
850.2505,0.157637595,0.138472001
848.2505,0.157595825,0.138475313
846.2456,0.157546877,0.138471558
844.243,0.157493279,0.138463101
842.239,0.157439935,0.13845493
840.2519,0.157385827,0.138445613
838.2528,0.157332654,0.138437501
836.2548,0.157279225,0.13842911
834.2531,0.157230299,0.138425304
832.2538,0.157176552,0.138416624
830.2522,0.157119896,0.138405086
828.2497,0.157069567,0.138399896
826.2447,0.157013485,0.138389008
824.2432,0.156960778,0.138381418
822.226,0.156912149,0.138378258
820.1997,0.156869126,0.13838091
818.1944,0.156825147,0.138382133
816.1829,0.156773842,0.13837617
814.1797,0.15672379,0.138371272
812.1777,0.156679939,0.138372548
810.1741,0.156633645,0.138371418
808.1739,0.156582447,0.138365306
806.1776,0.156529762,0.13835762
804.1787,0.15647525,0.138348166
802.1798,0.156416109,0.138334082
800.1772,0.156358285,0.138321399
798.1774,0.156302797,0.138310988
796.1731,0.156240471,0.138293841
794.1713,0.156184324,0.138282818
792.1754,0.156126627,0.138270111
790.1931,0.156066977,0.138255143
788.1898,0.156011998,0.138245321
786.1894,0.155951795,0.13823021
784.1852,0.155900214,0.138223806
782.1816,0.155846871,0.138215626
780.1785,0.155793442,0.13820735
778.1757,0.155753902,0.138212954
776.1777,0.155703489,0.138207579
774.1931,0.155648064,0.138196889
772.1903,0.155594317,0.138188287
770.1862,0.155549213,0.138188358
768.1839,0.155499352,0.138183631
766.1817,0.155448302,0.138177713
764.1829,0.155397401,0.138171866
762.1833,0.15533809,0.138157629
760.1849,0.155284513,0.138149098
758.1882,0.155235629,0.138145222
756.1873,0.155189144,0.13814384
754.1907,0.155133295,0.138132996
752.1973,0.155065342,0.138109976
750.1992,0.15500516,0.138094834
748.1998,0.154949821,0.138084563
746.2133,0.154891168,0.138070689
744.2138,0.154832579,0.138057171
742.2166,0.154774904,0.138044514
740.2136,0.154720392,0.138035153
738.2157,0.154671572,0.138031367
736.2116,0.154619545,0.138024515
734.2093,0.154559852,0.138009956
732.2092,0.154500903,0.137996091
730.2085,0.154450213,0.1379905
728.2233,0.154403474,0.137988509
726.2247,0.154348538,0.137978624
724.2169,0.154284258,0.137959602
722.2095,0.154231637,0.13795223
720.2158,0.154189654,0.137955187
718.2035,0.154139984,0.137950877
716.2104,0.154082096,0.137937916
714.2072,0.154026353,0.137927327
712.2057,0.153969952,0.137916042
710.2173,0.153910195,0.137901106
708.2123,0.153849398,0.137885503
706.2207,0.15379546,0.137876458
704.2162,0.153738485,0.137864667
702.209,0.153671721,0.137843147
700.217,0.153613599,0.137829928
698.2177,0.153554289,0.137815683
696.2267,0.153498652,0.137804926
694.219,0.153451339,0.137802869
692.2271,0.153396509,0.137792939
690.2208,0.153332038,0.137773692
688.231,0.153272876,0.137759382
686.2242,0.153219724,0.137751465
684.2328,0.15317377,0.1377504
682.234,0.153124758,0.137746444
680.2297,0.15307339,0.137740254
678.2406,0.153023593,0.137735294
676.235,0.152966214,0.137723124
674.2435,0.152906564,0.137708364
672.2385,0.152841647,0.137688642
670.2271,0.152771082,0.137663416
668.2348,0.152702448,0.137639691
666.2331,0.152636066,0.13761843
664.2451,0.152577605,0.13760478
662.2404,0.152533329,0.137605692
660.2355,0.152490242,0.137607798
658.2413,0.152430783,0.13759329
656.2315,0.152362808,0.137570619
654.2394,0.152307447,0.137560162
652.2357,0.152251386,0.137549266
650.2356,0.152183836,0.1375268
648.2505,0.152127498,0.137515209
646.2468,0.152062836,0.137495713
644.2447,0.152000191,0.137478198
642.242,0.151939479,0.137462628
640.238,0.151875539,0.137443861
638.2351,0.151813829,0.137427298
636.2484,0.151753711,0.137411963
634.2531,0.151691045,0.137394273
632.2556,0.151636979,0.137385234
630.2534,0.151575121,0.137368506
628.2508,0.151510267,0.137348794
626.2415,0.151455713,0.137339532
624.2484,0.151402327,0.137331073
622.2477,0.151343038,0.137316881
620.2464,0.151272409,0.137291364
618.2399,0.151204646,0.13726883
616.2174,0.151148924,0.137258697
614.1996,0.151092926,0.137248183
612.1912,0.151031641,0.137232169
610.1842,0.150970907,0.137216675
608.1905,0.150903527,0.137194235
606.1861,0.150834321,0.13717021
604.188,0.150767174,0.137148103
602.192,0.150704869,0.13713079
600.192,0.150633752,0.137104755
598.1924,0.15057631,0.137092386
596.2009,0.150516511,0.137077478
594.1997,0.150453016,0.137059093
592.1941,0.150391603,0.137042888
590.1909,0.150317301,0.13701374
588.195,0.150245312,0.136986741
586.1974,0.15017515,0.136961607
584.1982,0.150116816,0.136948338
582.1927,0.150059693,0.136936421
580.2041,0.149992865,0.136914418
578.2017,0.149922363,0.136889052
576.1971,0.149855705,0.13686758
574.1972,0.149788495,0.13684545
572.2046,0.149724809,0.13682668
570.2056,0.149661018,0.136807948
568.2063,0.149587756,0.136779752
566.2007,0.14951513,0.136752335
564.1975,0.149449852,0.136732212
562.1984,0.149376654,0.136704075
560.1961,0.149309698,0.136682254
558.1971,0.149249474,0.13666709
556.2141,0.149186002,0.136648316
554.2121,0.149115542,0.136622984
552.2122,0.149044042,0.136596564
550.2117,0.148986707,0.136584322
548.2114,0.148916799,0.136559503
546.2112,0.148849016,0.136536806
544.2086,0.148777325,0.136510256
542.209,0.148709456,0.136487461
540.2119,0.148632775,0.136455796
538.213,0.148552653,0.136420732
536.2117,0.148475972,0.136389163
534.2083,0.148402519,0.136360868
532.2161,0.148332165,0.136335421
530.2115,0.148256121,0.136304563
528.2103,0.148175724,0.136269275
526.2122,0.148092438,0.136231029
524.2178,0.148018475,0.136202021
522.2166,0.147952178,0.136180833
520.2145,0.147882674,0.136156459
518.2126,0.147809603,0.136128513
516.2082,0.147733537,0.136097629
514.2169,0.147663354,0.136072332
512.2154,0.147576437,0.136030531
510.2149,0.147503599,0.136002787
508.2145,0.147429509,0.135973788
506.2146,0.147346308,0.135935667
504.2166,0.147268374,0.13590277
502.2209,0.147189399,0.13586878
500.2229,0.147105477,0.135829895
498.2232,0.147014334,0.135783828
496.2365,0.146931155,0.135745431
494.2402,0.146860058,0.135719333
492.2427,0.146798836,0.135703137
490.2427,0.146711919,0.135661303
488.2406,0.146618292,0.135612805
486.2388,0.14652458,0.135564216
484.2418,0.14643382,0.13551847
482.2373,0.146356225,0.135486059
480.2395,0.146285405,0.135460271
478.2447,0.146213204,0.135433036
476.2471,0.146134569,0.135399429
474.2494,0.146040326,0.135350216
472.2456,0.145949566,0.135304624
470.2363,0.145849971,0.135250321
468.2459,0.145754582,0.135199797
466.2421,0.145679281,0.135169664
464.2449,0.145594084,0.135129486
462.2441,0.145489881,0.135070384
460.2401,0.145401839,0.135027514
458.2411,0.145319891,0.134990626
456.2403,0.145246523,0.134962358
454.2372,0.145156272,0.134917259
452.2353,0.145059141,0.134865253
450.2465,0.144963284,0.134814226
448.2486,0.144875687,0.134771664
446.2541,0.144782039,0.134722974
444.2562,0.144673972,0.134659942
442.2574,0.144566945,0.13459797
440.2546,0.144462891,0.134539062
438.2542,0.144362893,0.134484155
436.2511,0.144275191,0.134441605
434.249,0.144175532,0.134387076
432.2505,0.144060436,0.134317028
430.2657,0.143959207,0.134260538
428.2661,0.143862798,0.134209202
426.2663,0.143758638,0.13415012
424.2668,0.143645155,0.134081709
422.2645,0.143532267,0.134013955
420.2639,0.143426451,0.133953234
418.2619,0.143325306,0.133897217
416.2613,0.143233612,0.133850618
414.2634,0.14313045,0.133792491
412.2503,0.143019261,0.133726679
410.217,0.142909112,0.133662364
408.1968,0.142802085,0.133600874
406.1793,0.142683591,0.133527857
404.1806,0.142565204,0.133454522
402.1759,0.142454015,0.133388522
400.1767,0.14233586,0.133315432
398.1809,0.142224438,0.133248996
396.1952,0.14210932,0.133178639
394.1947,0.141982035,0.133096447
392.1914,0.141863689,0.133023258
390.1885,0.141745174,0.132949891
388.1859,0.141616084,0.132865941
386.1867,0.14150447,0.132799391
384.1909,0.141379181,0.13271909
382.1921,0.141251619,0.132636583
380.1893,0.141116519,0.132546629
378.1973,0.140972649,0.13244766
376.1868,0.140819796,0.132340126
374.1935,0.140682784,0.132248046
372.1865,0.140550275,0.132160776
370.1847,0.140405003,0.132060627
368.1966,0.140279693,0.131980131
366.1893,0.140149838,0.131895523
364.1886,0.139996793,0.131787576
362.1972,0.139845278,0.13168095
360.1937,0.139680024,0.131560856
358.1908,0.139531099,0.131457079
356.1857,0.139379754,0.131350931
354.1888,0.139229046,0.131245236
352.1926,0.139078805,0.131139991
350.1963,0.138922533,0.131028718
348.1973,0.138765645,0.13091689
346.1953,0.138619651,0.130816023
344.1912,0.138462296,0.130703843
342.1878,0.138293432,0.130580137
340.1834,0.138136778,0.130468665
338.1869,0.137980442,0.130357332
336.2017,0.137810834,0.130232473
334.2023,0.137638954,0.130105662
332.2036,0.137487949,0.129999709
330.2008,0.137322524,0.12987943
328.198,0.137144465,0.129746516
326.1976,0.136959929,0.129607071
324.1957,0.136747192,0.129439459
322.1987,0.136540231,0.129277513
320.2008,0.136372024,0.129154341
318.1989,0.136185088,0.129012531
316.1987,0.135980761,0.12885329
314.1976,0.135791064,0.1287087
312.21,0.135576352,0.128538791
310.2058,0.13534977,0.128357385
308.1982,0.135138137,0.128191006
306.197,0.134925166,0.128023145
304.2083,0.134709477,0.127852283
302.2054,0.134492727,0.12768068
300.3768,0.134277293,0.127506465
298.3146,0.134045593,0.127321249
296.2639,0.133822939,0.12714482
294.2352,0.133582574,0.126950185
292.2198,0.133382961,0.126796001
290.2156,0.133143892,0.126602109
288.214,0.132871313,0.126374648
286.2127,0.132589646,0.126138092
284.2215,0.13234376,0.125937091
282.218,0.132112739,0.125751231
280.2145,0.13186972,0.125553373
278.2142,0.131610329,0.125339071
276.2154,0.131342826,0.125116623
274.2175,0.131062857,0.124881689
272.2173,0.130806184,0.124670102
270.2224,0.130496783,0.124405669
268.2382,0.130224204,0.124177816
266.2259,0.129921068,0.123920039
264.2389,0.129593086,0.123636846
262.2381,0.129272345,0.123361206
260.2406,0.128950967,0.123084854
258.2432,0.128612176,0.122791087
256.2392,0.128286785,0.122510868
254.2401,0.127955044,0.122224189
252.2446,0.12763286,0.121946985
250.2494,0.127290544,0.121649643
248.2447,0.126907626,0.121311913
246.2548,0.126530207,0.12097935
244.2564,0.126173579,0.120667767
242.2592,0.125832027,0.120371235
240.2599,0.125483765,0.12006804
238.2609,0.125098384,0.119727718
236.2581,0.124678176,0.119352655
234.2564,0.124284131,0.11900373
232.2529,0.123887643,0.118652404
230.2515,0.123481323,0.118291198
228.2562,0.123074876,0.117929727
226.2722,0.122647831,0.117547403
224.2701,0.122186915,0.117131617
222.2696,0.121737317,0.116727113
220.266,0.12126693,0.116301889
218.2635,0.120823533,0.115903631
216.2583,0.120350513,0.11547581
214.257,0.119851628,0.115022036
212.2588,0.119376441,0.114591891
210.2741,0.118900023,0.114160211
208.2671,0.118402476,0.113707903
206.2479,0.117885137,0.11323608
204.2324,0.117327918,0.112724292
202.223,0.11676212,0.112203788
200.2192,0.116200378,0.111687214
198.2219,0.115636873,0.111168731
196.2241,0.115068208,0.110645098
194.2237,0.114503875,0.110125857
192.2227,0.113925676,0.109592762
190.2223,0.113272791,0.108984968
188.2345,0.112641078,0.108398062
186.2328,0.112026502,0.107828607
184.2309,0.111373405,0.107220635
182.2304,0.110736064,0.106628388
180.2332,0.110085345,0.106022688
178.2327,0.109404621,0.105387057
176.23,0.108697182,0.104724761
174.2288,0.107958039,0.104030727
172.2417,0.107228239,0.103345719
170.2364,0.106479731,0.102642413
168.2305,0.105735087,0.101942984
166.2434,0.104994649,0.101247337
164.243,0.104223376,0.100521156
162.2441,0.103457773,0.09980061
160.2432,0.102670468,0.099058407
158.2387,0.101850332,0.098283456
156.2309,0.100993077,0.097471459
154.2259,0.100130577,0.096654153
152.2251,0.099298847,0.095867523
150.2422,0.098445945,0.095059318
148.2436,0.097581491,0.094239915
146.2448,0.096726041,0.09342952
144.2422,0.095812087,0.092560707
142.2392,0.094886942,0.091680712
140.237,0.093925931,0.090764832
138.235,0.09298522,0.089869249
136.2323,0.092035251,0.088964423
134.2484,0.091061519,0.088035411
132.2463,0.090064152,0.087083173
130.2445,0.089123102,0.086187246
128.2504,0.088170818,0.085279911
126.2426,0.087189718,0.084344069
124.2345,0.086185747,0.083385363
122.2319,0.085133401,0.082378158
120.2474,0.084067869,0.081357358
118.2506,0.083008452,0.080342951
116.2519,0.081940965,0.079320518
114.2519,0.080860547,0.078285181
112.2471,0.079752076,0.077221901
110.2448,0.078622815,0.076137775
108.242,0.077490497,0.075050602
106.2371,0.076366758,0.073972055
104.2355,0.07518615,0.072836566
102.2372,0.074009577,0.071705037
100.2381,0.072856363,0.070596885
98.25184,0.071723365,0.069508659
96.2471,0.070557707,0.068388191
94.24362,0.069349005,0.067224649
92.23958,0.068146482,0.066067299
90.23853,0.066931409,0.064897332
88.24733,0.06570024,0.063711047
86.25372,0.064468221,0.062523966
84.2682,0.063238007,0.061338508
82.26755,0.061983394,0.060128992
80.26447,0.060738634,0.058929383
78.26025,0.059487227,0.057723154
76.25468,0.058244781,0.056525916
74.25272,0.056942898,0.055269159
72.25517,0.055611922,0.05398321
70.26397,0.054299526,0.052715698
68.28673,0.053010894,0.051471635
66.28598,0.051690875,0.050196715
64.27792,0.050351192,0.048902296
62.2742,0.049019303,0.047615573
60.27052,0.047653904,0.046295339
58.27014,0.04627466,0.044961186
56.27189,0.044929626,0.043661194
54.27356,0.043543713,0.042320327
52.27185,0.0421461,0.040967834
50.28106,0.040747149,0.039613758
48.27656,0.039350024,0.038261817
46.27556,0.03794757,0.036904467
44.27603,0.036530377,0.035532346
42.27649,0.035082627,0.034129668
40.27892,0.033611624,0.032703693
38.29068,0.032171838,0.031308723
36.28873,0.030692871,0.029874883
34.28639,0.029235098,0.028462245
32.28341,0.027786074,0.02705837
30.27663,0.026297467,0.025614998
28.27449,0.024795672,0.024158334
26.27545,0.023306109,0.022713832
24.27818,0.021781126,0.021233869
22.27852,0.020253176,0.019750993
20.27663,0.018721388,0.018264331
18.289,0.017177342,0.016765087
16.28657,0.015579531,0.015212414
14.28313,0.013987452,0.013665494
12.28206,0.012409036,0.012132184
10.27761,0.010823024,0.010591355
8.280468,0.009208498,0.009021847
6.294305,0.007563063,0.007421182
4.289433,0.005902397,0.005805709
2.273952,0.004263619,0.004212362
0.2632969,0.002627003,0.002621068
-1.740121,0.000948716,0.00098794
-3.741557,-0.000735912,-0.000651573
-5.737387,-0.002392642,-0.002263315
-7.732978,-0.004018553,-0.003844243
-9.722861,-0.005667378,-0.005448214
-11.72349,-0.007305532,-0.007041271
-13.72441,-0.008948769,-0.008639406
-15.72744,-0.010579518,-0.010225004
-17.7307,-0.012196352,-0.011796682
-19.73033,-0.013842668,-0.013397925
-21.72824,-0.01549832,-0.015008542
-23.71533,-0.01710753,-0.01657296
-25.71567,-0.018722953,-0.018143294
-27.71638,-0.020349062,-0.019724304
-29.72077,-0.02196407,-0.02129413
-31.72367,-0.023531694,-0.022816607
-33.72614,-0.025074154,-0.02431393
-35.7261,-0.026594148,-0.025788841
-37.72438,-0.028118728,-0.027268378
-39.72369,-0.029662589,-0.028767173
-41.71106,-0.031219469,-0.030279255
-43.71296,-0.032757682,-0.031772343
-45.71508,-0.034272664,-0.033242195
-47.7204,-0.035780234,-0.034704563
-49.72685,-0.037251449,-0.036130551
-51.72711,-0.038717568,-0.037551581
-53.72191,-0.040176212,-0.03896526
-55.72004,-0.041650613,-0.040394621
-57.71871,-0.043108917,-0.041807873
-59.71914,-0.044529868,-0.043183732
-61.71957,-0.045961139,-0.044569911
-63.70822,-0.047366163,-0.045930109
-65.70959,-0.048739993,-0.047258825
-67.70675,-0.050123463,-0.048597277
-69.70268,-0.051511945,-0.049940769
-71.70437,-0.052905417,-0.051289121
-73.70626,-0.054267079,-0.052605657
-75.70799,-0.055596165,-0.053889622
-77.71131,-0.056927184,-0.055175484
-79.70162,-0.058267164,-0.0564706
-81.70266,-0.059588456,-0.057746787
-83.70014,-0.06088966,-0.059002966
-85.69817,-0.062163428,-0.060231696
-87.69546,-0.06344569,-0.061468937
-89.69226,-0.064734344,-0.062712581
-91.69463,-0.065982778,-0.063915879
-93.69836,-0.067203308,-0.065091243
-95.70088,-0.068437854,-0.06628065
-97.68807,-0.069640632,-0.067438634
-99.68742,-0.070848018,-0.068600952
-101.688,-0.072065872,-0.069773712
-103.6922,-0.073264254,-0.070926917
-105.6971,-0.074469474,-0.072086944
-107.6839,-0.075641099,-0.073213784
-109.6847,-0.076803827,-0.074331411
-111.6882,-0.077961755,-0.075444178
-113.6876,-0.079104266,-0.076541621
-115.6826,-0.080224841,-0.077617227
-117.6813,-0.081352679,-0.078700011
-119.6833,-0.082429636,-0.079731841
-121.6832,-0.083455777,-0.080712902
-123.6876,-0.084497165,-0.081709109
-125.6783,-0.08552458,-0.082691651
-127.684,-0.086565267,-0.083687128
-129.6883,-0.087589051,-0.084665732
-131.6836,-0.088650379,-0.085682084
-133.6818,-0.089680024,-0.086666687
-135.6688,-0.090665223,-0.087607097
-137.6733,-0.091632286,-0.088528977
-139.6775,-0.092601368,-0.089452881
-141.6796,-0.093565989,-0.090372373
-143.683,-0.094501986,-0.091263211
-145.6805,-0.095413179,-0.092129378
-147.6782,-0.096326283,-0.092997452
-149.6665,-0.097221061,-0.093847412
-151.6683,-0.09810038,-0.094681608
-153.6743,-0.098983181,-0.095519191
-155.6787,-0.099849101,-0.096339929
-157.6909,-0.100702172,-0.097147644
-159.6809,-0.10153575,-0.097936364
-161.6777,-0.102355078,-0.098710683
-163.6773,-0.103164171,-0.099474703
-165.6776,-0.103954025,-0.100219467
