Field,Moment,MomentParasub
999.4506,0.028687933,0.000964854
994.8146,0.028611149,0.001016664
989.7012,0.028463356,0.001010708
984.7062,0.028343172,0.001029077
979.7008,0.028187347,0.001012094
974.7255,0.028062004,0.001024756
969.723,0.02792784,0.001029354
964.7124,0.027791419,0.001031918
959.7323,0.027643471,0.001022111
954.7376,0.027493388,0.001010571
949.7135,0.027370805,0.001027349
944.7312,0.027232795,0.00102754
939.7511,0.027081649,0.001014533
934.7826,0.026939487,0.001010188
929.7989,0.026809278,0.001018219
924.8129,0.026671137,0.001018381
919.7746,0.026534541,0.001021539
914.777,0.026385717,0.00101134
909.7902,0.026272404,0.001036353
904.7665,0.026119646,0.001022944
899.7689,0.025980914,0.001022837
894.7833,0.025858616,0.001038831
889.7541,0.025723959,0.001043676
884.7569,0.025577447,0.001035778
879.7684,0.025428262,0.001024965
874.782,0.025287074,0.001022092
869.7927,0.025153689,0.001027101
864.7936,0.025027512,0.001039591
859.7841,0.02487539,0.001026424
854.766,0.024739704,0.001029931
849.781,0.024613867,0.00104237
844.7843,0.024473129,0.001040232
839.7641,0.024330276,0.001036632
834.7762,0.02419563,0.001040342
829.7866,0.024073333,0.001056447
824.7619,0.023923786,0.001046277
819.7705,0.023784417,0.001045362
814.7721,0.023644458,0.001044049
809.7969,0.023514118,0.001051713
804.8146,0.023363519,0.001039315
799.8272,0.023234329,0.001048467
794.7968,0.023093953,0.001047626
789.8056,0.022956908,0.001049028
784.8228,0.022820421,0.001050756
779.805,0.022675596,0.001045116
774.8123,0.022545837,0.001053846
769.8334,0.022412604,0.00105872
764.8091,0.022269007,0.001054488
759.8115,0.0221332,0.001057306
754.8294,0.021989964,0.001052265
749.8518,0.021856578,0.001056949
744.8732,0.021717034,0.001055504
739.892,0.021581468,0.001058107
734.8875,0.021441278,0.001056734
729.8788,0.021306336,0.001060725
724.903,0.021176949,0.001069359
719.9076,0.02103127,0.001062243
714.8855,0.020884495,0.001054773
709.8945,0.020759688,0.001068408
704.9015,0.0206178,0.001065017
699.8771,0.020465098,0.001051683
694.8936,0.020339721,0.001064541
689.9164,0.020196376,0.001059254
684.9464,0.020055145,0.001055883
679.9693,0.019922055,0.001060849
674.9839,0.019780199,0.00105728
669.9595,0.019642737,0.001059187
664.9676,0.019503566,0.001058483
659.9758,0.019364527,0.001057907
654.9545,0.019228851,0.001061514
649.9591,0.019094709,0.001065936
644.9777,0.018949085,0.001058487
639.9609,0.018810308,0.001058868
634.9558,0.018671389,0.001058782
629.972,0.018530092,0.001055728
624.9889,0.018386802,0.00105066
620.0023,0.018251476,0.001053655
615.0125,0.018111692,0.001052279
609.989,0.017976071,0.001056001
604.9692,0.017839047,0.001058218
599.988,0.017703426,0.001060767
594.986,0.017556049,0.001052137
589.9713,0.017420614,0.001055802
584.9812,0.017291512,0.001065117
579.9862,0.017154828,0.001066986
574.9611,0.017009039,0.001060585
569.9759,0.016873298,0.001063124
564.998,0.01673062,0.001058526
560.0163,0.016584623,0.001050713
555.0253,0.016448224,0.001052756
550.0402,0.016313535,0.001056344
545.01,0.016168885,0.001051224
540.0144,0.016041887,0.001062795
535.0298,0.015897468,0.001056641
530.0092,0.015755021,0.001053456
525.0216,0.015603984,0.001040767
520.0356,0.015475638,0.001050724
515.0142,0.01534887,0.001063242
510.0078,0.015191566,0.001044806
505.0114,0.01505417,0.001046002
500.0331,0.014928344,0.001058266
495.047,0.014780254,0.001048482
490.0568,0.014638563,0.001045211
485.0528,0.014491569,0.001037019
480.0305,0.014364746,0.001049507
475.0477,0.014233464,0.001056439
470.0511,0.014088431,0.001050003
465.0364,0.013947945,0.001048617
460.0474,0.013804764,0.001043822
455.0427,0.013660432,0.001038313
450.0155,0.01351037,0.001027697
445.027,0.013372328,0.001028027
440.0477,0.013240651,0.001034468
435.0798,0.013106685,0.001038302
430.0927,0.012970516,0.001040467
425.1012,0.012840493,0.001048901
420.0715,0.012695844,0.001043767
415.0826,0.012567991,0.001054298
410.0862,0.012403795,0.001028693
405.0426,0.012280391,0.00104519
400.043,0.012132783,0.001036263
395.0562,0.011983938,0.001025743
390.0341,0.011855866,0.001036975
385.0327,0.011712674,0.001032514
380.0449,0.011551786,0.00100998
375.0585,0.011420592,0.001017099
370.0718,0.011261535,0.000996365
365.0818,0.011150106,0.00102335
360.0774,0.010995354,0.001007413
355.0507,0.010875379,0.00102687
350.0648,0.010714388,0.001004179
345.0669,0.010590727,0.001019152
340.05,0.010466657,0.001034241
335.063,0.010323769,0.001029685
330.0638,0.010167556,0.001012141
325.0338,0.01002795,0.001012059
320.0498,0.009871252,0.000993608
315.0764,0.009729476,0.000989786
310.1015,0.00962001,0.001018316
305.1049,0.009482586,0.001019488
300.1083,0.009307953,0.000983454
295.0784,0.009164647,0.000979668
290.0857,0.009022586,0.000976096
285.1003,0.008912465,0.001004262
280.0803,0.008753626,0.000984669
275.0779,0.008595693,0.000965494
270.0973,0.008435023,0.000942978
265.0737,0.008322562,0.000969863
260.0697,0.008184503,0.000970607
255.0873,0.008080948,0.001005255
250.0985,0.007905619,0.000968307
245.1138,0.007727411,0.000928366
240.1249,0.007621254,0.000960593
235.1208,0.007470637,0.000948782
230.1064,0.007339456,0.000956691
225.1136,0.007197766,0.000953493
220.1151,0.007031807,0.000926184
215.101,0.006896104,0.000929564
210.1143,0.00674429,0.000916072
205.1211,0.006615946,0.000926232
200.09,0.006446568,0.000896408
195.0947,0.006287233,0.000875634
190.1113,0.006142136,0.000868768
185.1407,0.006013249,0.000877757
180.151,0.005876817,0.000879731
175.1597,0.005732525,0.000873889
170.1266,0.005601444,0.000882418
165.1365,0.005404115,0.000823506
160.153,0.005268021,0.000825646
155.136,0.005117235,0.000814023
150.1313,0.004965244,0.000800855
145.1439,0.004820615,0.000794567
140.1248,0.00462079,0.000733964
135.118,0.004491442,0.000743496
130.1354,0.004372319,0.000762582
125.1456,0.004209671,0.000738343
120.1562,0.004022476,0.000689545
115.1709,0.003921112,0.000726465
110.1641,0.003719865,0.000664098
105.1495,0.003597742,0.000681071
100.1507,0.003421301,0.000643289
95.1464,0.003249961,0.00061076
90.12976,0.003094605,0.000594557
85.14907,0.002945709,0.000583817
80.14933,0.002806785,0.000583578
75.12012,0.002615263,0.000531557
70.12954,0.002426731,0.000481455
65.14877,0.002319347,0.00051223
60.1746,0.00216558,0.000496438
55.18756,0.002002394,0.000471584
50.20313,0.001847411,0.000454861
45.16071,0.001656648,0.000403966
40.16638,0.001486429,0.000372281
35.18193,0.001323757,0.00034787
30.16565,0.00115879,0.000322046
25.17227,0.001005205,0.000306969
20.18077,0.00081405,0.000254269
15.16305,0.000655477,0.000234879
10.15698,0.000467207,0.000185469
5.172423,0.000307958,0.000164483
0.1605794,0.000119738,0.000115284
-4.845303,-3.95141E-05,9.48865E-05
-9.834519,-0.000261508,1.12852E-05
-14.84142,-0.000480195,-6.85194E-05
-19.85959,-0.000655067,-0.000104195
-24.8442,-0.000796254,-0.000107118
-29.84042,-0.000964737,-0.000137014
-34.87261,-0.001180894,-0.000213586
-39.85346,-0.001361711,-0.000256243
-44.84658,-0.001558861,-0.000314892
-49.87482,-0.001698834,-0.000315391
-54.86718,-0.001900492,-0.000378569
-59.85372,-0.002045758,-0.000385517
-64.82101,-0.002246817,-0.000448791
-69.81111,-0.00235963,-0.000423187
-74.79607,-0.002563472,-0.000488754
-79.8332,-0.002720123,-0.000505684
-84.82568,-0.002889511,-0.000536589
-89.80954,-0.003066773,-0.000575607
-94.8273,-0.003214725,-0.000584375
-99.82067,-0.003363425,-0.000594567
-104.8199,-0.0035157,-0.000608172
-109.8433,-0.003693708,-0.000646839
-114.8497,-0.003862469,-0.000676732
-119.8379,-0.003995239,-0.000671137
-124.8226,-0.004175755,-0.000713386
-129.8101,-0.00429934,-0.000698626
-134.804,-0.004449307,-0.000710071
-139.8073,-0.004648842,-0.000770823
-144.8258,-0.00478009,-0.000762865
-149.8238,-0.004951312,-0.000795452
-154.8067,-0.005097112,-0.000803034
-159.8376,-0.005245878,-0.000812251
-164.8232,-0.005377551,-0.000805632
-169.818,-0.005551601,-0.000841135
-174.8458,-0.005690644,-0.000840716
-179.8291,-0.005852933,-0.000864776
-184.8174,-0.005968691,-0.000842167
-189.7863,-0.006117665,-0.000853312
-194.7756,-0.006316312,-0.000913564
-199.7579,-0.00645267,-0.000911721
-204.7972,-0.006566213,-0.000885483
-209.811,-0.006742095,-0.000922291
-214.798,-0.006880563,-0.000922427
-219.8167,-0.007012686,-0.00091534
-224.8161,-0.007165997,-0.000929976
-229.8017,-0.00730501,-0.000930698
-234.8233,-0.007454289,-0.000940685
-239.8316,-0.007593507,-0.000940982
-244.8149,-0.007745786,-0.000955032
-249.7964,-0.007901777,-0.000972845
-254.7763,-0.008030519,-0.000963452
-259.7732,-0.008184736,-0.000979064
-264.789,-0.008313815,-0.000969013
-269.8008,-0.008480383,-0.000996563
-274.788,-0.008590349,-0.000968192
-279.781,-0.00872345,-0.000962796
-284.8052,-0.008880832,-0.000980815
-289.7916,-0.009035566,-0.000997234
-294.7803,-0.009163125,-0.000986415
-299.8118,-0.009293666,-0.000977391
-304.7941,-0.009442675,-0.000988199
-309.7923,-0.009591686,-0.000998568
-314.7656,-0.009742815,-0.001011746
-319.7543,-0.00986636,-0.000996913
-324.7402,-0.010034377,-0.00102663
-329.7717,-0.010154098,-0.001006786
-334.7669,-0.010313052,-0.00102718
-339.7565,-0.010429696,-0.001005421
-344.77,-0.010603684,-0.001040343
-349.7692,-0.010712966,-0.001010956
-354.7577,-0.010884004,-0.001043622
-359.7723,-0.010988035,-0.001008556
-364.7853,-0.011147805,-0.001029274
-369.7698,-0.011298042,-0.001041249
-374.7581,-0.011413514,-0.001018354
-379.7526,-0.011568671,-0.001034972
-384.7299,-0.011695581,-0.00102382
-389.7392,-0.011828211,-0.001017501
-394.7573,-0.01198064,-0.001030736
-399.7437,-0.012141724,-0.001053506
-404.7368,-0.012254227,-0.001027508
-409.7744,-0.012414084,-0.001047631
-414.7876,-0.012555764,-0.001050253
-419.7824,-0.01266327,-0.001019212
-424.8147,-0.01280254,-0.001018894
-429.8006,-0.012962726,-0.001040779
-434.785,-0.013103266,-0.001043061
-439.7595,-0.013228544,-0.001030355
-444.7434,-0.01338621,-0.001049776
-449.7282,-0.013510425,-0.001035721
-454.7586,-0.013647328,-0.001033089
-459.7515,-0.013799888,-0.001047154
-464.7453,-0.013919283,-0.001028029
-469.7592,-0.014066967,-0.001036636
-474.7589,-0.014203432,-0.001034418
-479.7468,-0.014350535,-0.001043165
-484.7579,-0.014497989,-0.00105162
-489.7708,-0.014625711,-0.001040292
-494.7671,-0.014764717,-0.00104071
-499.736,-0.014903943,-0.001042107
-504.7136,-0.015026789,-0.001026882
-509.6962,-0.015186887,-0.001048771
-514.7143,-0.015302775,-0.001025466
-519.7402,-0.015468768,-0.001052049
-524.725,-0.015611905,-0.001056916
-529.7195,-0.01573084,-0.001037311
-534.7386,-0.015872761,-0.001040011
-539.7227,-0.01600584,-0.001034839
-544.7178,-0.016142359,-0.001032803
-549.7461,-0.016289397,-0.001040364
-554.7324,-0.0164208,-0.001033456
-559.7157,-0.01656901,-0.001043438
-564.6822,-0.016701914,-0.001038579
-569.6742,-0.016841008,-0.001039204
-574.6583,-0.016967327,-0.001027272
-579.6883,-0.017128565,-0.001048986
-584.6789,-0.017263058,-0.001045048
-589.6596,-0.017401341,-0.001045175
-594.6777,-0.017537236,-0.001041876
-599.6729,-0.017676111,-0.001042193
-604.6583,-0.017803844,-0.001031639
-609.6715,-0.017968872,-0.00105761
-614.6829,-0.018105545,-0.001055275
-619.6743,-0.018230911,-0.001042187
-624.6626,-0.018365217,-0.001038126
-629.6462,-0.018492555,-0.001027228
-634.6332,-0.018645049,-0.001041391
-639.634,-0.018779432,-0.00103706
-644.6538,-0.018928245,-0.001046632
-649.6379,-0.019062595,-0.001042732
-654.6253,-0.019200955,-0.00104275
-659.6426,-0.019347643,-0.001050266
-664.6265,-0.019472011,-0.001036389
-669.6228,-0.019616069,-0.001041858
-674.6525,-0.019755536,-0.001041809
-679.6337,-0.019874076,-0.001022179
-684.6182,-0.0200315,-0.001041342
-689.5692,-0.020168502,-0.001041011
-694.5594,-0.020308593,-0.001042683
-699.5407,-0.020450536,-0.001046453
-704.5596,-0.020589817,-0.001046518
-709.5529,-0.020712104,-0.001030299
-714.5326,-0.020861881,-0.001041947
-719.5585,-0.021004087,-0.001044743
-724.5597,-0.021130219,-0.001032151
-729.5395,-0.021271812,-0.001035612
-734.5507,-0.021410654,-0.001035452
-739.5567,-0.021541717,-0.001027657
-744.5369,-0.021696074,-0.001043872
-749.5154,-0.021832933,-0.001042636
-754.4897,-0.021959855,-0.001031579
-759.4731,-0.022098621,-0.001032113
-764.4699,-0.022238504,-0.001033394
-769.486,-0.022385892,-0.001041644
-774.4796,-0.022520242,-0.00103748
-779.4679,-0.022659019,-0.001037889
-784.4843,-0.022806955,-0.001046679
-789.4641,-0.022944406,-0.001045999
-794.4446,-0.02306231,-0.001025752
-799.4763,-0.023209819,-0.00103369
-804.4596,-0.023345364,-0.001031006
-809.4424,-0.023486836,-0.001034264
-814.3982,-0.023614699,-0.001024662
-819.3868,-0.023764509,-0.001036097
-824.3831,-0.023900076,-0.001033074
-829.407,-0.02403493,-0.001028574
-834.3971,-0.024164371,-0.001019598
-839.3782,-0.02431669,-0.00103375
-844.3852,-0.024456847,-0.001035021
-849.3813,-0.024589959,-0.00102955
-854.3636,-0.024719949,-0.001021338
-859.3737,-0.024858681,-0.001021099
-864.3795,-0.025012041,-0.001035607
-869.3565,-0.025144638,-0.00103015
-874.347,-0.02528336,-0.001030444
-879.3254,-0.025424503,-0.001033495
-884.3032,-0.025551951,-0.001022866
-889.2969,-0.025683912,-0.001016311
-894.3129,-0.025827817,-0.00102108
-899.2959,-0.02597343,-0.001028473
-904.2829,-0.026113029,-0.001029741
-909.2922,-0.026239479,-0.001017242
-914.2708,-0.026380009,-0.001019673
-919.2525,-0.026532097,-0.001033578
-924.2945,-0.026663511,-0.001025135
-929.2797,-0.026805838,-0.001029181
-934.2551,-0.026932956,-0.00101829
-939.2168,-0.027070068,-0.001017772
-944.1981,-0.02720238,-0.001011911
-949.1768,-0.027337048,-0.001008479
-954.196,-0.027484513,-0.00101672
-959.1872,-0.027623443,-0.001017202
-964.1627,-0.027763994,-0.001019742
-969.1662,-0.027899922,-0.001016881
-974.1583,-0.028032454,-0.00101094
-979.1453,-0.028179031,-0.001019186
-984.1509,-0.028311639,-0.001012947
-989.1566,-0.028455379,-0.001017838
-994.1297,-0.028587154,-0.001011667
-999.4974,-0.028712761,-0.000988383
-999.5001,-0.028717188,-0.000992735
-994.9136,-0.028624078,-0.001026847
-989.9317,-0.02851071,-0.001051669
-984.9303,-0.028374695,-0.001054383
-979.9288,-0.028236948,-0.00105537
-974.939,-0.028106476,-0.001063307
-969.9417,-0.027963701,-0.001059148
-964.9398,-0.027826754,-0.001060946
-959.9568,-0.027696775,-0.001069187
-954.9487,-0.027548773,-0.001060101
-949.9319,-0.027411586,-0.001062071
-944.9516,-0.027277411,-0.001066042
-939.9713,-0.027140037,-0.001066813
-935.0019,-0.027008119,-0.001072738
-930.0203,-0.026858627,-0.001061427
-925.026,-0.026718612,-0.001059946
-919.9889,-0.026582761,-0.001063815
-915.0053,-0.026443513,-0.001062804
-910.0217,-0.026298491,-0.001056019
-905.0038,-0.026164492,-0.001061207
-900.018,-0.026025595,-0.001060608
-895.0339,-0.025896065,-0.001069329
-890.0114,-0.025749017,-0.001061596
-885.017,-0.02560486,-0.001055976
-880.0371,-0.025472592,-0.001061842
-875.0548,-0.025331734,-0.001059184
-870.065,-0.025188355,-0.001054215
-865.0866,-0.025055813,-0.001059765
-860.0751,-0.024920937,-0.001063899
-855.0735,-0.024781985,-0.001063683
-850.0871,-0.024630488,-0.001050501
-845.0807,-0.02449845,-0.001057331
-840.0767,-0.024349122,-0.001046806
-835.0942,-0.024224687,-0.001060578
-830.0938,-0.024082679,-0.001057272
-825.0762,-0.023942116,-0.001055889
-820.0786,-0.023816389,-0.001068787
-815.0951,-0.023670107,-0.001060739
-810.1285,-0.023532755,-0.001061152
-805.1516,-0.023399391,-0.001065839
-800.164,-0.02326515,-0.001069946
-795.1318,-0.023118156,-0.001062536
-790.1525,-0.022972159,-0.001054657
-785.1673,-0.022842827,-0.001063606
-780.1452,-0.022701169,-0.001061252
-775.1609,-0.022561001,-0.00105934
-770.1674,-0.02240786,-0.001044711
-765.1452,-0.022292542,-0.0010687
-760.1548,-0.022151782,-0.001066366
-755.167,-0.022004887,-0.001057823
-750.1954,-0.021865387,-0.001056227
-745.2135,-0.021739824,-0.001068854
-740.2337,-0.021600741,-0.001067902
-735.2205,-0.021464276,-0.001070495
-730.212,-0.021317326,-0.001062472
-725.2272,-0.021182044,-0.001065461
-720.2176,-0.021041986,-0.00106436
-715.2053,-0.020891968,-0.001053375
-710.2258,-0.020764038,-0.001063568
-705.2274,-0.02063108,-0.001069257
-700.2115,-0.02048311,-0.00106042
-695.2274,-0.020335897,-0.001051458
-690.2421,-0.02022002,-0.001073864
-685.2837,-0.02007101,-0.001062392
-680.3064,-0.01992945,-0.001058894
-675.3171,-0.019791989,-0.001059827
-670.2867,-0.019651393,-0.001058767
-665.2926,-0.019522335,-0.001068237
-660.3088,-0.019375516,-0.00105966
-655.2873,-0.019238197,-0.001061629
-650.3023,-0.019103836,-0.001065543
-645.3186,-0.018957313,-0.00105726
-640.2881,-0.018822733,-0.001062217
-635.2975,-0.018693927,-0.001071842
-630.3087,-0.018545684,-0.00106198
-625.3263,-0.018402634,-0.001057133
-620.3397,-0.018264394,-0.001057214
-615.3417,-0.018121169,-0.001052625
-610.3256,-0.017973047,-0.00104364
-605.3175,-0.017855844,-0.001065354
-600.3376,-0.017718426,-0.00106607
-595.3311,-0.017573305,-0.001059821
-590.319,-0.017434759,-0.001060302
-585.3391,-0.017293188,-0.001056865
-580.3389,-0.017155277,-0.001057652
-575.3173,-0.017020938,-0.001062603
-570.3304,-0.016885175,-0.001065168
-565.3424,-0.016748348,-0.0010667
-560.3709,-0.016611511,-0.001067764
-555.3915,-0.016468166,-0.001062539
-550.4022,-0.016333728,-0.001066496
-545.3695,-0.016178801,-0.001051168
-540.381,-0.016047322,-0.001058061
-535.392,-0.015919436,-0.001068562
-530.3695,-0.015772267,-0.001060708
-525.3779,-0.015631518,-0.001058418
-520.394,-0.015492325,-0.00105747
-515.3567,-0.015360396,-0.001065268
-510.3537,-0.015222025,-0.001065671
-505.3676,-0.015052373,-0.001034325
-500.3904,-0.014937317,-0.001057328
-495.4117,-0.014795582,-0.001053694
-490.4212,-0.014658646,-0.001055187
-485.406,-0.014524746,-0.001060399
-480.3973,-0.014383613,-0.0010582
-475.4117,-0.014237978,-0.001050856
-470.4107,-0.014097525,-0.001049123
-465.3955,-0.013951539,-0.00104225
-460.4028,-0.013833196,-0.001062397
-455.4044,-0.013678555,-0.001046402
-450.3809,-0.013548105,-0.001055296
-445.3929,-0.013410194,-0.001055744
-440.4085,-0.01326939,-0.001053199
-435.4354,-0.013138338,-0.001060092
-430.4502,-0.012977429,-0.001037464
-425.4579,-0.012825461,-0.001023974
-420.4275,-0.012712619,-0.001050667
-415.434,-0.012572023,-0.001048582
-410.4181,-0.012414281,-0.001029973
-405.3792,-0.012287031,-0.001042493
-400.3924,-0.01214363,-0.001037418
-395.4078,-0.012017432,-0.001049484
-390.3782,-0.011868203,-0.001039768
-385.3763,-0.011738126,-0.001048435
-380.3945,-0.011594035,-0.001042531
-375.4053,-0.011453188,-0.001040076
-370.4203,-0.011305953,-0.001031116
-365.4333,-0.011168261,-0.001031755
-360.4099,-0.011004963,-0.001007798
-355.4004,-0.010885685,-0.001027475
-350.4158,-0.010749354,-0.001029409
-345.41,-0.010610802,-0.001029709
-340.4044,-0.010466464,-0.001024218
-335.4122,-0.01031056,-0.001006789
-330.4108,-0.010174345,-0.001009305
-325.3859,-0.010035913,-0.001010255
-320.3991,-0.00988189,-0.000994557
-315.4137,-0.009753083,-0.001004037
-310.4362,-0.009601042,-0.000990064
-305.444,-0.009475263,-0.00100276
-300.4526,-0.00931363,-0.00097958
-295.4215,-0.0092012,-0.001006704
-290.4357,-0.009056241,-0.001000043
-285.4466,-0.008904698,-0.000986889
-280.4217,-0.008752583,-0.000974156
-275.4316,-0.008627842,-0.000987832
-270.4563,-0.00846696,-0.000964957
-265.4203,-0.008325809,-0.000963496
-260.4155,-0.008197374,-0.000973885
-255.4188,-0.008063082,-0.000978193
-250.4403,-0.007892862,-0.000946069
-245.4558,-0.00777972,-0.000971189
-240.4718,-0.007662136,-0.000991853
-235.4585,-0.007471917,-0.000940694
-230.4442,-0.007359507,-0.000967372
-225.4604,-0.007201507,-0.000947614
-220.4544,-0.007045162,-0.000930128
-215.4431,-0.006872963,-0.000896934
-210.4541,-0.006758719,-0.000921076
-205.4326,-0.006604213,-0.000905858
